"Total Time (s)","Cycle Elapsed Time (s)","Total Cycles","Elapsed Cycles","Step","Total Cycle Count(8800 (0,3) Waveform)","Position(8800 (0,3):Position) (mm)","Load(8800 (0,3):Load) (kN)","Extension mm from Extensometer (mm)",
0,0,1,1,1,1,0.00128081097006798,-0.014263391494751,-0.00029563905878067,
0.01,0.01,1,1,1,1,0.000799371385574341,-0.0133693218231201,-0.000133514413642883,
0.02,0.02,1,1,1,1,0.0010537168264389,-0.0116109848022461,-0.000145435343432426,
0.022,0.022,1,1,1,1,-0.000181675314903259,-0.0184237957000732,0.00694751788134575,
0.031,0.031,1,1,1,1,0.00058136100769043,-0.01373291015625,-0.00262975711157322,
0.033,0.033,1,1,1,1,-0.00179858561754227,-0.00895857810974121,-0.00109672554063797,
0.034,0.034,1,1,1,1,0.00177133432030678,-0.0147223472595215,-0.00212430968849659,
0.045,0.045,1,1,1,1,-0.00114455448389053,-0.013810396194458,-0.000934600895500183,
0.055,0.055,1,1,1,1,0.00138981615900993,-0.00693202018737793,-0.00917434756603241,
0.065,0.065,1,1,1,1,0.000499607115983963,-0.0050663948059082,-0.00231266037917137,
0.076,0.076,1,1,1,1,0.00178041808605194,0.00162124633789063,0.00386238125181198,
0.086,0.086,1,1,1,1,0.0017895018517971,0.0131487846374512,0.00241756456131935,
0.091,0.091,1,1,1,1,-6.35863602161407E-05,0.0147581100463867,-0.0124359139564514,
0.097,0.097,1,1,1,1,0.00166232913136482,0.0192880630493164,-0.00562191048874855,
0.108,0.108,1,1,1,1,0.00347908228039742,0.0248193740844727,-3.09944174528122E-05,
0.118,0.118,1,1,1,1,0.000354266864061356,0.0347733497619629,-0.000913143221879005,
0.129,0.129,1,1,1,1,0.00235269532799721,0.0442981719970703,0.0045299533200264,
0.139,0.139,1,1,1,1,0.00123539214134216,0.0612258911132813,0.00355243707728386,
0.15,0.15,1,1,1,1,0.00374251148700714,0.0945568084716797,0.000762939506530762,
0.16,0.16,1,1,1,1,0.00672198665142059,0.196480751037598,0.000534057654571533,
0.17,0.17,1,1,1,1,0.0107551786422729,0.383555889129639,0.00728607228736877,
0.181,0.181,1,1,1,1,0.0159874277114868,0.619542598724365,0.00807762202539444,
0.191,0.191,1,1,1,1,0.0183219555079937,0.810718536376953,0.0241661088693619,
0.201,0.201,1,1,1,1,0.0257797271847725,0.997591018676758,0.014533997599411,
0.212,0.212,1,1,1,1,0.029376898419857,1.18895769119263,0.0173759472612381,
0.222,0.222,1,1,1,1,0.0315024996042252,1.35159492492676,0.0173997891208172,
0.232,0.232,1,1,1,1,0.0361352201342583,1.495361328125,0.0307416937412739,
0.243,0.243,1,1,1,1,0.0383970778048038,1.6110897064209,0.0215578094314098,
0.253,0.253,1,1,1,1,0.0415673120498657,1.68174505233765,0.0192499174241543,
0.263,0.263,1,1,1,1,0.0424938561558723,1.73400640487671,0.0227689758980274,
0.273,0.273,1,1,1,1,0.0427027827680111,1.78197622299194,0.0249052065163136,
0.283,0.283,1,1,1,1,0.0448647190153599,1.81757211685181,0.0247287767554283,
0.294,0.294,1,1,1,1,0.0460728598594665,1.86506509780884,0.0363588358581066,
0.304,0.304,1,1,1,1,0.0465361319124699,1.90051794052124,0.0237321870250225,
0.314,0.314,1,1,1,1,0.0479895344316959,1.93706750869751,0.0242185609604359,
0.324,0.324,1,1,1,1,0.0498517064094543,1.97696685791016,0.0297784826142788,
0.334,0.334,1,1,1,1,0.0493975181221962,2.01373100280762,0.0266361255217552,
0.344,0.344,1,1,1,1,0.0513505277574062,2.0506739616394,0.0301790258552074,
0.355,0.355,1,1,1,1,0.0525041660070419,2.09718942642212,0.0310897848911285,
0.365,0.365,1,1,1,1,0.0509508420646191,2.13848352432251,0.0268173236545563,
0.375,0.375,1,1,1,1,0.0534397938787937,2.178955078125,0.0254726427742958,
0.385,0.385,1,1,1,1,0.053848563337326,2.20358371734619,0.0303125402688503,
0.395,0.395,1,1,1,1,0.0535215477705002,2.24102735519409,0.0354528451941013,
0.405,0.405,1,1,1,1,0.05630118008852,2.27804183959961,0.0216341033820629,
0.415,0.415,1,1,1,1,0.0592443201899528,2.32902765274048,0.0303030035250187,
0.426,0.426,1,1,1,1,0.0590353935778141,2.35762596130371,0.0297975561019421,
0.436,0.436,1,1,1,1,0.0601345292329788,2.38879919052124,0.0300121328381538,
0.446,0.446,1,1,1,1,0.0607885603666305,2.4268627166748,0.027999879889679,
0.456,0.456,1,1,1,1,0.0618967797875404,2.46443748474121,0.0223827377728462,
0.466,0.466,1,1,1,1,0.0631594232261181,2.50377655029297,0.0443506271890163,
0.476,0.476,1,1,1,1,0.0641132186293602,2.53862142562866,0.0273132343338013,
0.487,0.487,1,1,1,1,0.0647854172945023,2.57997512817383,0.0331354164430141,
0.497,0.497,1,1,1,1,0.0674015418291092,2.61354446411133,0.0297832509861946,
0.507,0.507,1,1,1,1,0.0677648924589157,2.66406536102295,0.0370979335050583,
0.517,0.517,1,1,1,1,0.0702810955703258,2.70935297012329,0.0286722203298092,
0.527,0.527,1,1,1,1,0.0704627708852291,2.75185108184814,0.0327301048301697,
0.537,0.537,1,1,1,1,0.0719706759989261,2.80163288116455,0.0342988991904736,
0.547,0.547,1,1,1,1,0.073914601868391,2.86370515823364,0.029668810060215,
0.557,0.557,1,1,1,1,0.0734331622838974,2.91945934295654,0.0289201756694317,
0.567,0.567,1,1,1,1,0.0757041037201881,2.99122333526611,0.0411367445177555,
0.578,0.578,1,1,1,1,0.0766397315919399,3.06711196899414,0.039348605049324,
0.588,0.588,1,1,1,1,0.0781113016426563,3.13538312911987,0.0381660488142014,
0.598,0.598,1,1,1,1,0.0811089443385601,3.19710969924927,0.0366640116607189,
0.608,0.608,1,1,1,1,0.0839975818455219,3.2650351524353,0.0390148190152168,
0.618,0.618,1,1,1,1,0.0838431578278542,3.33302021026611,0.0272846241023064,
0.628,0.628,1,1,1,1,0.0864138635337353,3.39808464050293,0.0315618537107944,
0.638,0.638,1,1,1,1,0.0874857478916645,3.45673561096191,0.0394296673718929,
0.648,0.648,1,1,1,1,0.0908830762803555,3.5184383392334,0.0380897548635483,
0.658,0.658,1,1,1,1,0.0903743853986263,3.58051061630249,0.0418615370489597,
0.668,0.668,1,1,1,1,0.0930995151221752,3.63543033599854,0.0468540224448204,
0.678,0.678,1,1,1,1,0.0950888598203659,3.69664430618286,0.0442171127753734,
0.688,0.688,1,1,1,1,0.0950888598203659,3.74825000762939,0.0407791166240692,
0.698,0.698,1,1,1,1,0.0974597226798534,3.80934476852417,0.0419378309996128,
0.709,0.709,1,1,1,1,0.0978049057781696,3.86319160461426,0.044436457883501,
0.719,0.719,1,1,1,1,0.0996579939901829,3.91942262649536,0.0398063687532425,
0.729,0.729,1,1,1,1,0.100520951735973,3.97027730941772,0.0376081493000507,
0.739,0.739,1,1,1,1,0.100575454330444,4.01513576507568,0.0441646606842995,
0.749,0.749,1,1,1,1,0.10398186648488,4.0713906288147,0.0434350997811794,
0.759,0.759,1,1,1,1,0.105226342391968,4.11522388458252,0.0474548373062134,
0.769,0.769,1,1,1,1,0.106507153362036,4.17261123657227,0.0351047540442467,
0.779,0.779,1,1,1,1,0.107342859810591,4.2292594909668,0.0351381326476574,
0.789,0.789,1,1,1,1,0.111039952468872,4.28987741470337,0.0467824968660831,
0.799,0.799,1,1,1,1,0.110249664849043,4.34898138046265,0.0476884875300884,
0.809,0.809,1,1,1,1,0.114001260101795,4.4079065322876,0.0490856205014229,
0.819,0.819,1,1,1,1,0.11536382496357,4.47051525115967,0.0499296223305225,
0.829,0.829,1,1,1,1,0.116135945051908,4.53318357467651,0.0492763553780556,
0.84,0.84,1,1,1,1,0.119106336450577,4.5976996421814,0.0492286716588974,
0.85,0.85,1,1,1,1,0.120586990267038,4.65890169143677,0.0528955496621609,
0.86,0.86,1,1,1,1,0.121122932446003,4.71509695053101,0.0516891515674591,
0.87,0.87,1,1,1,1,0.122430994713306,4.7735333442688,0.0598144573120117,
0.88,0.88,1,1,1,1,0.124438506942987,4.83143329620361,0.0539445914836407,
0.89,0.89,1,1,1,1,0.12512887313962,4.88487482070923,0.0512361562354565,
0.9,0.9,1,1,1,1,0.128925887221098,4.9433708190918,0.057067875088501,
0.91,0.91,1,1,1,1,0.128907719689608,4.9938440322876,0.0541830100794315,
0.92,0.92,1,1,1,1,0.131133242297173,5.05064725875854,0.0578022043635368,
0.93,0.93,1,1,1,1,0.132350466907024,5.09800910949707,0.0679636049161434,
0.94,0.94,1,1,1,1,0.133367848670483,5.16558885574341,0.0537920035823345,
0.95,0.95,1,1,1,1,0.133640361642837,5.21330833435059,0.0567770044016361,
0.961,0.961,1,1,1,1,0.136928684842586,5.27781248092651,0.0555563011911869,
0.971,0.971,1,1,1,1,0.137964234137535,5.32724857330322,0.0585603754981518,
0.981,0.981,1,1,1,1,0.136801512122154,5.38637638092041,0.0618457837481499,
0.991,0.991,1,1,1,1,0.140498604780436,5.45276403427124,0.0609254879683971,
1.001,1.001,1,1,1,1,0.142778629982471,5.51685094833374,0.0598144573120117,
1.011,1.011,1,1,1,1,0.143587085133791,5.57715892791748,0.0565671960373402,
1.021,1.021,1,1,1,1,0.14796546022296,5.64404726028442,0.0631618543969154,
1.032,1.032,1,1,1,1,0.147683863484859,5.70985078811646,0.055527690959692,
1.042,1.042,1,1,1,1,0.150336323082447,5.77288866043091,0.0536775626563549,
1.052,1.052,1,1,1,1,0.151526296395063,5.82760572433472,0.0665330933413982,
1.062,1.062,1,1,1,1,0.152798023599386,5.89121580123901,0.0572252313617229,
1.072,1.072,1,1,1,1,0.155477734494209,5.93597888946533,0.0657844589506149,
1.082,1.082,1,1,1,1,0.154778284531832,5.99679946899414,0.0724315694012642,
1.092,1.092,1,1,1,1,0.158511712253094,6.05100393295288,0.0577831308758736,
1.102,1.102,1,1,1,1,0.160610062140226,6.10430240631104,0.0655460403548241,
1.112,1.112,1,1,1,1,0.160900742644072,6.14796876907349,0.0632572218352318,
1.122,1.122,1,1,1,1,0.163535034710169,6.20189905166626,0.0666713761269569,
1.132,1.132,1,1,1,1,0.165960400164127,6.2491774559021,0.0561857262840748,
1.142,1.142,1,1,1,1,0.165052023589611,6.29297494888306,0.0777149254839897,
1.152,1.152,1,1,1,1,0.167322965025902,6.34374618530273,0.0664520310188293,
1.163,1.163,1,1,1,1,0.16666893389225,6.39803409576416,0.0624561353533745,
1.173,1.173,1,1,1,1,0.171492413502932,6.44098520278931,0.0598430675435066,
1.183,1.183,1,1,1,1,0.169503068804741,6.48651123046875,0.0666141556639671,
1.193,1.193,1,1,1,1,0.172691470581293,6.53014183044434,0.0610637707539558,
1.203,1.203,1,1,1,1,0.173663433516026,6.5746545791626,0.0623750730308056,
1.213,1.213,1,1,1,1,0.173109323805571,6.62224292755127,0.0678157853867531,
1.223,1.223,1,1,1,1,0.174471888667345,6.66792392730713,0.0724935582361698,
1.233,1.233,1,1,1,1,0.175943458718061,6.72761201858521,0.0724601796327591,
1.243,1.243,1,1,1,1,0.179222698152065,6.79943561553955,0.07415772003479,
1.253,1.253,1,1,1,1,0.182692696666718,6.85718059539795,0.0668859528631687,
1.263,1.263,1,1,1,1,0.183764581024647,6.92048072814941,0.0712299396784782,
1.273,1.273,1,1,1,1,0.185644920533895,6.98150396347046,0.0767183357535839,
1.284,1.284,1,1,1,1,0.187198244476318,7.04751014709473,0.072879796361351,
1.294,1.294,1,1,1,1,0.189005913859606,7.09996223449707,0.076246266933918,
1.304,1.304,1,1,1,1,0.191622038394213,7.17002153396606,0.0644350096984386,
1.314,1.314,1,1,1,1,0.191440363079309,7.21560716629028,0.0766563469186783,
1.324,1.324,1,1,1,1,0.192294237059355,7.27378129959106,0.0771808678294182,
1.334,1.334,1,1,1,1,0.194247246694565,7.32396841049194,0.0771665627136707,
1.344,1.344,1,1,1,1,0.195891408294439,7.37804174423218,0.0815486965043068,
1.354,1.354,1,1,1,1,0.196145753735304,7.41976499557495,0.0835561810808658,
1.364,1.364,1,1,1,1,0.196427350473404,7.47581720352173,0.0781345422125816,
1.374,1.374,1,1,1,1,0.200315202212334,7.52686262130737,0.0773763710779667,
1.384,1.384,1,1,1,1,0.20205020146966,7.58070945739746,0.0761652046113491,
1.394,1.394,1,1,1,1,0.202586143648624,7.62311220169067,0.0770139748123646,
1.404,1.404,1,1,1,1,0.20569279153347,7.66857862472534,0.0827789364585876,
1.415,1.415,1,1,1,1,0.205066011697054,7.73088932037354,0.0804281291040897,
1.425,1.425,1,1,1,1,0.206982686269283,7.77713060379028,0.0775146538635254,
1.435,1.435,1,1,1,1,0.209090119922161,7.82188177108765,0.0847196638283253,
1.445,1.445,1,1,1,1,0.211170302277803,7.87129402160645,0.0901508394404411,
1.455,1.455,1,1,1,1,0.2115518204391,7.92831182479858,0.0778770501291275,
1.465,1.465,1,1,1,1,0.21320506580472,7.97706842422485,0.0861930907503128,
1.475,1.475,1,1,1,1,0.215321583223343,8.03356170654297,0.0791263635710716,
1.485,1.485,1,1,1,1,0.216729566913843,8.08149576187134,0.0864172042303562,
1.495,1.495,1,1,1,1,0.216684148085117,8.1428050994873,0.0834131299233913,
1.505,1.505,1,1,1,1,0.220617418652773,8.19662809371948,0.0743866018867493,
1.515,1.515,1,1,1,1,0.220226816725731,8.25217962265015,0.080785756997776,
1.525,1.525,1,1,1,1,0.222488674396276,8.31307172775269,0.0788068826527119,
1.535,1.535,1,1,1,1,0.224087417167425,8.37143659591675,0.088405615319252,
1.546,1.546,1,1,1,1,0.226240269649029,8.43065977096558,0.0733804754125118,
1.556,1.556,1,1,1,1,0.227784509825706,8.48573446273804,0.0948619908932686,
1.566,1.566,1,1,1,1,0.229165242218971,8.54140520095825,0.0824499187963963,
1.576,1.576,1,1,1,1,0.231181838214397,8.59090089797974,0.0890779557593822,
1.586,1.586,1,1,1,1,0.233189350444078,8.65169763565063,0.0905942980286121,
1.596,1.596,1,1,1,1,0.233670790028572,8.69351625442505,0.0907516543018341,
1.606,1.606,1,1,1,1,0.23551479447484,8.74323844909668,0.0848150312666416,
1.616,1.616,1,1,1,1,0.236732019084692,8.7902307510376,0.0951004094890594,
1.626,1.626,1,1,1,1,0.239411729979515,8.8456392288208,0.0909233156908035,
1.636,1.636,1,1,1,1,0.241273901957273,8.88403654098511,0.0913333956755638,
1.646,1.646,1,1,1,1,0.242918063557148,8.92950296401978,0.0896787706207752,
1.656,1.656,1,1,1,1,0.242118692171574,8.974289894104,0.0938987797662735,
1.667,1.667,1,1,1,1,0.24246387526989,9.015953540802,0.105752952348995,
1.677,1.677,1,1,1,1,0.245207172524929,9.05914306640625,0.0945711202064037,
1.687,1.687,1,1,1,1,0.247623454213142,9.10584926605225,0.0959014959709167,
1.697,1.697,1,1,1,1,0.249004186606407,9.14425849914551,0.0941801137093067,
1.707,1.707,1,1,1,1,0.249839893054962,9.18513536453247,0.100016600934267,
1.717,1.717,1,1,1,1,0.251256960511208,9.23055410385132,0.0922346179676533,
1.727,1.727,1,1,1,1,0.253455231821537,9.27448272705078,0.0935697621040821,
1.737,1.737,1,1,1,1,0.255317403799295,9.32415723800659,0.096807486634922,
1.747,1.747,1,1,1,1,0.255417325222492,9.36659574508667,0.0967979498910904,
1.757,1.757,1,1,1,1,0.258887323737144,9.44118499755859,0.100927359970188,
1.767,1.767,1,1,1,1,0.259550438636541,9.49294567108154,0.102477080842829,
1.777,1.777,1,1,1,1,0.261494364506006,9.55873727798462,0.100393302315617,
1.787,1.787,1,1,1,1,0.263093107277155,9.6193790435791,0.0951051778609753,
1.798,1.798,1,1,1,1,0.266036247378588,9.68781709671021,0.0994014809571266,
1.808,1.808,1,1,1,1,0.26781666546464,9.73715782165527,0.100016600934267,
1.818,1.818,1,1,1,1,0.269460827064514,9.80031490325928,0.104789741222,
1.828,1.828,1,1,1,1,0.271032318538427,9.84817743301392,0.0955152578457355,
1.838,1.838,1,1,1,1,0.268516115427017,9.89712476730347,0.102920539431,
1.848,1.848,1,1,1,1,0.274892918980122,9.95222330093384,0.10437966123724,
1.858,1.858,1,1,1,1,0.273557605415583,10.0001335144043,0.100574500448418,
1.868,1.868,1,1,1,1,0.274974672871828,10.0532531738281,0.107927329942608,
1.878,1.878,1,1,1,1,0.279280377835035,10.1019740104675,0.103416450110245,
1.888,1.888,1,1,1,1,0.280252340769768,10.1372957229614,0.10724068438673,
1.898,1.898,1,1,1,1,0.281723910820484,10.1855278015137,0.108103759703493,
1.908,1.908,1,1,1,1,0.282823046475649,10.2375864982605,0.101585395294571,
1.918,1.918,1,1,1,1,0.282977470493317,10.2645635604858,0.117807396552181,
1.929,1.929,1,1,1,1,0.285929694360495,10.3108763694763,0.11438847388854,
1.939,1.939,1,1,1,1,0.287410348176956,10.3557109832764,0.109643943832302,
1.949,1.949,1,1,1,1,0.286665479385853,10.3928089141846,0.105619437935352,
1.959,1.959,1,1,1,1,0.288182468265295,10.4411959648132,0.104818351453495,
1.969,1.969,1,1,1,1,0.289054509776831,10.4695320129395,0.11669159752388,
1.979,1.979,1,1,1,1,0.291089273303747,10.5202555656433,0.103268630580854,
1.989,1.989,1,1,1,1,0.293087701767683,10.559356212616,0.11371613344841,
1.999,1.999,1,1,1,1,0.293060450470447,10.596489906311,0.107660301115322,
2.01,2.01,1,1,1,1,0.294086915999651,10.6403827667236,0.112018593046379,
2.021,2.021,1,1,1,1,0.297784008657932,10.6963634490967,0.110244758693695,
2.031,2.031,1,1,1,1,0.298383537197113,10.7538461685181,0.107536323445511,
2.042,2.042,1,1,1,1,0.300318379300833,10.8041286468506,0.112376220940065,
2.053,2.053,1,1,1,1,0.303361440825462,10.875403881073,0.113635071125841,
2.063,2.063,1,1,1,1,0.305141858911514,10.9256982803345,0.116863258912849,
2.074,2.074,1,1,1,1,0.307594475662708,10.9903693199158,0.112996109289122,
2.084,2.084,1,1,1,1,0.308139501607418,11.0403656959534,0.114030845994854,
2.095,2.095,1,1,1,1,0.309947170990705,11.0977292060852,0.115122803163576,
2.106,2.106,1,1,1,1,0.312399787741899,11.1544728279114,0.113434799505377,
2.116,2.116,1,1,1,1,0.314207457125187,11.2030267715454,0.108585365266991,
2.127,2.127,1,1,1,1,0.314334629845619,11.2508654594421,0.119528778813791,
2.138,2.138,1,1,1,1,0.317804628360271,11.2936854362488,0.116233833819962,
2.148,2.148,1,1,1,1,0.31857674844861,11.3388538360596,0.13010979609499,
2.159,2.159,1,1,1,1,0.321220124280453,11.3862156867981,0.121312149910307,
2.17,2.17,1,1,1,1,0.320874941182137,11.4237666130066,0.126614579480696,
2.18,2.18,1,1,1,1,0.323527400779724,11.4718437194824,0.114321716681719,
2.191,2.191,1,1,1,1,0.326225279206038,11.5123987197876,0.123386391693687,
2.201,2.201,1,1,1,1,0.325589415603876,11.5507483482361,0.121612557341003,
2.212,2.212,1,1,1,1,0.327042818123102,11.5934133529663,0.122127541507912,
2.223,2.223,1,1,1,1,0.328777817380428,11.6325736045837,0.124344834448767,
2.233,2.233,1,1,1,1,0.327860357040167,11.664342880249,0.129170426827574,
2.244,2.244,1,1,1,1,0.330158549773693,11.7011547088623,0.127038964581203,
2.255,2.255,1,1,1,1,0.334600511223078,11.758279800415,0.12748719154129,
2.265,2.265,1,1,1,1,0.334355249547958,11.8066310882568,0.112743385577583,
2.276,2.276,1,1,1,1,0.336789698767662,11.8603825569153,0.128455171040201,
2.287,2.287,1,1,1,1,0.338388441538811,11.9120836257935,0.126118668801451,
2.297,2.297,1,1,1,1,0.339505744725466,11.9612574577332,0.127496728285122,
2.308,2.308,1,1,1,1,0.342975743240118,12.0116710662842,0.134348878728151,
2.318,2.318,1,1,1,1,0.343602523076534,12.0661854743958,0.123848923769522,
2.329,2.329,1,1,1,1,0.342530638718605,12.1044635772705,0.133829126189327,
2.34,2.34,1,1,1,1,0.348471421515942,12.1742606163025,0.119318970449495,
2.35,2.35,1,1,1,1,0.349270792901516,12.2021079063416,0.131840715100431,
2.361,2.361,1,1,1,1,0.351832414841652,12.2531890869141,0.133323678766251,
2.372,2.372,1,1,1,1,0.352595451164246,12.290096282959,0.132312783920097,
2.382,2.382,1,1,1,1,0.353885345900059,12.3431086540222,0.12947083425827,
2.393,2.393,1,1,1,1,0.354139691340923,12.3719811439514,0.135297784739399,
2.404,2.404,1,1,1,1,0.357591522324085,12.4240279197693,0.135917673088455,
2.414,2.414,1,1,1,1,0.358181967097521,12.4527812004089,0.13256073925972,
2.425,2.425,1,1,1,1,0.357682359981537,12.4973297119141,0.138449678575754,
2.436,2.436,1,1,1,1,0.362160656493902,12.5389337539673,0.132732400648689,
2.446,2.446,1,1,1,1,0.362796520096064,12.57084608078,0.13606072424593,
2.457,2.457,1,1,1,1,0.36368672913909,12.6118063926697,0.13442994105072,
2.467,2.467,1,1,1,1,0.365585236179829,12.6469373703003,0.132565507631636,
2.478,2.478,1,1,1,1,0.367538245815039,12.6791596412659,0.14945508095746,
2.489,2.489,1,1,1,1,0.368056020462513,12.717342376709,0.136718759570312,
2.499,2.499,1,1,1,1,0.371126333284378,12.7583265304565,0.139274606917191,
2.51,2.51,1,1,1,1,0.372470730614662,12.7928376197815,0.137381563266611,
2.521,2.521,1,1,1,1,0.37320651564002,12.8364205360413,0.14070035012002,
2.531,2.531,1,1,1,1,0.37376970911622,12.8832697868347,0.14356137326951,
2.542,2.542,1,1,1,1,0.377103451144695,12.9268765449524,0.142335901687145,
2.553,2.553,1,1,1,1,0.377821068638563,12.9703879356384,0.147676478232861,
2.563,2.563,1,1,1,1,0.378992874419689,13.0063533782959,0.140500078499556,
2.574,2.574,1,1,1,1,0.380891381460428,13.0535244941711,0.144276629056883,
2.584,2.584,1,1,1,1,0.38436137997508,13.0863189697266,0.14461041509099,
2.595,2.595,1,1,1,1,0.38406161570549,13.1323337554932,0.139775285968351,
2.606,2.606,1,1,1,1,0.386087295466661,13.1669640541077,0.151362429723787,
2.616,2.616,1,1,1,1,0.387722373300791,13.2070660591125,0.1399707892169,
